 Variables = "t (s)" "<greek>z</greek> (m)" 
  1.000000E-01  0.000000E+00
  2.000000E-01  2.585316E-06
  3.000000E-01  8.978218E-06
  4.000000E-01  2.016398E-05
  5.000000E-01  3.807837E-05
  6.000000E-01  6.078791E-05
  7.000000E-01  7.878707E-05
  8.000000E-01  7.432454E-05
  9.000000E-01  2.410779E-05
  1.000000E+00 -9.585355E-05
  1.100000E+00 -3.053297E-04
  1.200000E+00 -6.166737E-04
  1.300000E+00 -1.034037E-03
  1.400000E+00 -1.554441E-03
  1.500000E+00 -2.169445E-03
  1.600000E+00 -2.866417E-03
  1.700000E+00 -3.629312E-03
  1.800000E+00 -4.439899E-03
  1.900000E+00 -5.280650E-03
  2.000000E+00 -6.139714E-03
  2.100000E+00 -7.016717E-03
  2.200000E+00 -7.926434E-03
  2.300000E+00 -8.896683E-03
  2.400000E+00 -9.957971E-03
  2.500000E+00 -1.112532E-02
  2.600000E+00 -1.237659E-02
  2.700000E+00 -1.363484E-02
  2.800000E+00 -1.476319E-02
  2.900000E+00 -1.557837E-02
  3.000000E+00 -1.588408E-02
  3.100000E+00 -1.551818E-02
  3.200000E+00 -1.440197E-02
  3.300000E+00 -1.257642E-02
  3.400000E+00 -1.021159E-02
  3.500000E+00 -7.581584E-03
  3.600000E+00 -5.006215E-03
  3.700000E+00 -2.770659E-03
  3.800000E+00 -1.042069E-03
  3.900000E+00  1.945318E-04
  4.000000E+00  1.161121E-03
  4.100000E+00  2.260238E-03
  4.200000E+00  3.996898E-03
  4.300000E+00  6.861593E-03
  4.400000E+00  1.119845E-02
  4.500000E+00  1.708927E-02
  4.600000E+00  2.428421E-02
  4.700000E+00  3.220207E-02
  4.800000E+00  4.000897E-02
  4.900000E+00  4.676544E-02
  5.000000E+00  5.161383E-02
  5.100000E+00  5.396400E-02
  5.200000E+00  5.363179E-02
  5.300000E+00  5.089221E-02
  5.400000E+00  4.642895E-02
  5.500000E+00  4.118819E-02
  5.600000E+00  3.617144E-02
  5.700000E+00  3.222065E-02
  5.800000E+00  2.985271E-02
  5.900000E+00  2.918742E-02
  6.000000E+00  2.998526E-02
  6.100000E+00  3.177773E-02
  6.200000E+00  3.404378E-02
  6.300000E+00  3.637210E-02
  6.400000E+00  3.855514E-02
  6.500000E+00  4.058619E-02
  6.600000E+00  4.256735E-02
  6.700000E+00  4.456974E-02
  6.800000E+00  4.650647E-02
  6.900000E+00  4.807476E-02
  7.000000E+00  4.879708E-02
  7.100000E+00  4.815188E-02
  7.200000E+00  4.574613E-02
  7.300000E+00  4.146107E-02
  7.400000E+00  3.550777E-02
  7.500000E+00  2.836032E-02
  7.600000E+00  2.058123E-02
  7.700000E+00  1.259852E-02
  7.800000E+00  4.518700E-03
  7.900000E+00 -3.945779E-03
  8.000000E+00 -1.339331E-02
  8.100000E+00 -2.450829E-02
  8.200000E+00 -3.776320E-02
  8.300000E+00 -5.314841E-02
  8.400000E+00 -7.002744E-02
  8.500000E+00 -8.717675E-02
  8.600000E+00 -1.030073E-01
  8.700000E+00 -1.159031E-01
  8.800000E+00 -1.245730E-01
  8.900000E+00 -1.283074E-01
  9.000000E+00 -1.270700E-01
  9.100000E+00 -1.214129E-01
  9.200000E+00 -1.122666E-01
  9.300000E+00 -1.006947E-01
  9.400000E+00 -8.770712E-02
  9.500000E+00 -7.418837E-02
  9.600000E+00 -6.093993E-02
  9.700000E+00 -4.877991E-02
  9.800000E+00 -3.861173E-02
  9.900000E+00 -3.138381E-02
  1.000000E+01 -2.791021E-02
  1.010000E+01 -2.858961E-02
  1.020000E+01 -3.312073E-02
  1.030000E+01 -4.033842E-02
  1.040000E+01 -4.827289E-02
  1.050000E+01 -5.446775E-02
  1.060000E+01 -5.650333E-02
  1.070000E+01 -5.259118E-02
  1.080000E+01 -4.206554E-02
  1.090000E+01 -2.561421E-02
  1.100000E+01 -5.163579E-03
  1.110000E+01  1.656259E-02
  1.120000E+01  3.668888E-02
  1.130000E+01  5.285157E-02
  1.140000E+01  6.368731E-02
  1.150000E+01  6.901213E-02
  1.160000E+01  6.965500E-02
  1.170000E+01  6.701909E-02
  1.180000E+01  6.252562E-02
  1.190000E+01  5.712340E-02
  1.200000E+01  5.101501E-02
  1.210000E+01  4.367097E-02
  1.220000E+01  3.410506E-02
  1.230000E+01  2.130097E-02
  1.240000E+01  4.638525E-03
  1.250000E+01 -1.582093E-02
  1.260000E+01 -3.927445E-02
  1.270000E+01 -6.434718E-02
  1.280000E+01 -8.942135E-02
  1.290000E+01 -1.130082E-01
  1.300000E+01 -1.340410E-01
  1.310000E+01 -1.520034E-01
  1.320000E+01 -1.668647E-01
  1.330000E+01 -1.788573E-01
  1.340000E+01 -1.881794E-01
  1.350000E+01 -1.947198E-01
  1.360000E+01 -1.978937E-01
  1.370000E+01 -1.966374E-01
  1.380000E+01 -1.895673E-01
  1.390000E+01 -1.752625E-01
  1.400000E+01 -1.526039E-01
  1.410000E+01 -1.210900E-01
  1.420000E+01 -8.105750E-02
  1.430000E+01 -3.375653E-02
  1.440000E+01  1.874101E-02
  1.450000E+01  7.379021E-02
  1.460000E+01  1.285379E-01
  1.470000E+01  1.803396E-01
  1.480000E+01  2.271501E-01
  1.490000E+01  2.678106E-01
  1.500000E+01  3.021689E-01
  1.510000E+01  3.310021E-01
  1.520000E+01  3.557488E-01
  1.530000E+01  3.781047E-01
  1.540000E+01  3.995651E-01
  1.550000E+01  4.210161E-01
  1.560000E+01  4.424667E-01
  1.570000E+01  4.629825E-01
  1.580000E+01  4.808327E-01
  1.590000E+01  4.938103E-01
  1.600000E+01  4.996459E-01
  1.610000E+01  4.964156E-01
  1.620000E+01  4.828485E-01
  1.630000E+01  4.584755E-01
  1.640000E+01  4.236040E-01
  1.650000E+01  3.791484E-01
  1.660000E+01  3.263857E-01
  1.670000E+01  2.667121E-01
  1.680000E+01  2.014701E-01
  1.690000E+01  1.318828E-01
  1.700000E+01  5.909389E-02
  1.710000E+01 -1.572473E-02
  1.720000E+01 -9.125864E-02
  1.730000E+01 -1.659901E-01
  1.740000E+01 -2.382331E-01
  1.750000E+01 -3.062707E-01
  1.760000E+01 -3.685604E-01
  1.770000E+01 -4.239448E-01
  1.780000E+01 -4.717887E-01
  1.790000E+01 -5.119814E-01
  1.800000E+01 -5.447786E-01
  1.810000E+01 -5.705115E-01
  1.820000E+01 -5.892444E-01
  1.830000E+01 -6.004950E-01
  1.840000E+01 -6.031344E-01
  1.850000E+01 -5.955437E-01
  1.860000E+01 -5.760345E-01
  1.870000E+01 -5.434532E-01
  1.880000E+01 -4.978128E-01
  1.890000E+01 -4.407577E-01
  1.900000E+01 -3.756841E-01
  1.910000E+01 -3.074160E-01
  1.920000E+01 -2.414525E-01
  1.930000E+01 -1.829340E-01
  1.940000E+01 -1.355702E-01
  1.950000E+01 -1.008118E-01
  1.960000E+01 -7.750041E-02
  1.970000E+01 -6.211681E-02
  1.980000E+01 -4.958592E-02
  1.990000E+01 -3.444577E-02
  2.000000E+01 -1.208388E-02
  2.010000E+01  2.027193E-02
  2.020000E+01  6.304833E-02
  2.030000E+01  1.144056E-01
  2.040000E+01  1.708341E-01
  2.050000E+01  2.280638E-01
  2.060000E+01  2.820146E-01
  2.070000E+01  3.295332E-01
  2.080000E+01  3.687590E-01
  2.090000E+01  3.990903E-01
  2.100000E+01  4.208532E-01
  2.110000E+01  4.348427E-01
  2.120000E+01  4.419166E-01
  2.130000E+01  4.427570E-01
  2.140000E+01  4.378217E-01
  2.150000E+01  4.274224E-01
  2.160000E+01  4.118165E-01
  2.170000E+01  3.912177E-01
  2.180000E+01  3.656895E-01
  2.190000E+01  3.349684E-01
  2.200000E+01  2.983256E-01
  2.210000E+01  2.545840E-01
  2.220000E+01  2.023628E-01
  2.230000E+01  1.405272E-01
  2.240000E+01  6.872220E-02
  2.250000E+01 -1.219047E-02
  2.260000E+01 -9.997201E-02
  2.270000E+01 -1.912234E-01
  2.280000E+01 -2.819552E-01
  2.290000E+01 -3.683548E-01
  2.300000E+01 -4.475087E-01
  2.310000E+01 -5.178348E-01
  2.320000E+01 -5.790642E-01
  2.330000E+01 -6.317594E-01
  2.340000E+01 -6.765246E-01
  2.350000E+01 -7.131764E-01
  2.360000E+01 -7.401797E-01
  2.370000E+01 -7.545771E-01
  2.380000E+01 -7.524848E-01
  2.390000E+01 -7.300408E-01
  2.400000E+01 -6.845349E-01
  2.410000E+01 -6.153766E-01
  2.420000E+01 -5.245981E-01
  2.430000E+01 -4.167227E-01
  2.440000E+01 -2.980218E-01
  2.450000E+01 -1.753648E-01
  2.460000E+01 -5.498417E-02
  2.470000E+01  5.850889E-02
  2.480000E+01  1.626058E-01
  2.490000E+01  2.567885E-01
  2.500000E+01  3.419082E-01
  2.510000E+01  4.192790E-01
  2.520000E+01  4.897778E-01
  2.530000E+01  5.532123E-01
  2.540000E+01  6.081245E-01
  2.550000E+01  6.520569E-01
  2.560000E+01  6.821796E-01
  2.570000E+01  6.960897E-01
  2.580000E+01  6.925641E-01
  2.590000E+01  6.720830E-01
  2.600000E+01  6.370125E-01
  2.610000E+01  5.914239E-01
  2.620000E+01  5.406074E-01
  2.630000E+01  4.903909E-01
  2.640000E+01  4.463982E-01
  2.650000E+01  4.133763E-01
  2.660000E+01  3.946951E-01
  2.670000E+01  3.920814E-01
  2.680000E+01  4.056036E-01
  2.690000E+01  4.338676E-01
  2.700000E+01  4.743429E-01
  2.710000E+01  5.237073E-01
  2.720000E+01  5.780959E-01
  2.730000E+01  6.331792E-01
  2.740000E+01  6.840611E-01
  2.750000E+01  7.250802E-01
  2.760000E+01  7.496775E-01
  2.770000E+01  7.505293E-01
  2.780000E+01  7.201117E-01
  2.790000E+01  6.517504E-01
  2.800000E+01  5.410393E-01
  2.810000E+01  3.873327E-01
  2.820000E+01  1.948903E-01
  2.830000E+01 -2.675568E-02
  2.840000E+01 -2.635139E-01
  2.850000E+01 -4.985690E-01
  2.860000E+01 -7.150588E-01
  2.870000E+01 -8.990221E-01
  2.880000E+01 -1.041888E+00
  2.890000E+01 -1.141824E+00
  2.900000E+01 -1.203517E+00
  2.910000E+01 -1.236381E+00
  2.920000E+01 -1.251631E+00
  2.930000E+01 -1.259026E+00
  2.940000E+01 -1.264174E+00
  2.950000E+01 -1.267195E+00
  2.960000E+01 -1.263081E+00
  2.970000E+01 -1.243621E+00
  2.980000E+01 -1.200246E+00
  2.990000E+01 -1.126877E+00
  3.000000E+01 -1.021877E+00
  3.010000E+01 -8.885216E-01
  3.020000E+01 -7.339040E-01
  3.030000E+01 -5.667501E-01
  3.040000E+01 -3.949627E-01
  3.050000E+01 -2.238122E-01
  3.060000E+01 -5.542665E-02
  3.070000E+01  1.102591E-01
  3.080000E+01  2.735018E-01
  3.090000E+01  4.325273E-01
  3.100000E+01  5.820495E-01
  3.110000E+01  7.132553E-01
  3.120000E+01  8.154641E-01
  3.130000E+01  8.790357E-01
  3.140000E+01  8.985856E-01
  3.150000E+01  8.753662E-01
  3.160000E+01  8.178618E-01
  3.170000E+01  7.401977E-01
  3.180000E+01  6.586800E-01
  3.190000E+01  5.874318E-01
  3.200000E+01  5.344446E-01
  3.210000E+01  4.992888E-01
  3.220000E+01  4.732389E-01
  3.230000E+01  4.418324E-01
  3.240000E+01  3.891296E-01
  3.250000E+01  3.024278E-01
  3.260000E+01  1.760749E-01
  3.270000E+01  1.334017E-02
  3.280000E+01 -1.740759E-01
  3.290000E+01 -3.685935E-01
  3.300000E+01 -5.505031E-01
  3.310000E+01 -7.017975E-01
  3.320000E+01 -8.091000E-01
  3.330000E+01 -8.651185E-01
  3.340000E+01 -8.685928E-01
  3.350000E+01 -8.231595E-01
  3.360000E+01 -7.357759E-01
  3.370000E+01 -6.152955E-01
  3.380000E+01 -4.715140E-01
  3.390000E+01 -3.146700E-01
  3.400000E+01 -1.551310E-01
  3.410000E+01 -2.935727E-03
  3.420000E+01  1.329968E-01
  3.430000E+01  2.459182E-01
  3.440000E+01  3.322435E-01
  3.450000E+01  3.920675E-01
  3.460000E+01  4.288868E-01
  3.470000E+01  4.484871E-01
  3.480000E+01  4.572891E-01
  3.490000E+01  4.606889E-01
  3.500000E+01  4.619606E-01
  3.510000E+01  4.620920E-01
  3.520000E+01  4.605474E-01
  3.530000E+01  4.565702E-01
  3.540000E+01  4.503991E-01
  3.550000E+01  4.437983E-01
  3.560000E+01  4.395925E-01
  3.570000E+01  4.403530E-01
  3.580000E+01  4.467985E-01
  3.590000E+01  4.566856E-01
  3.600000E+01  4.648419E-01
  3.610000E+01  4.645726E-01
  3.620000E+01  4.500861E-01
  3.630000E+01  4.190850E-01
  3.640000E+01  3.744554E-01
  3.650000E+01  3.241949E-01
  3.660000E+01  2.793041E-01
  3.670000E+01  2.501301E-01
  3.680000E+01  2.423243E-01
  3.690000E+01  2.538709E-01
  3.700000E+01  2.744301E-01
  3.710000E+01  2.875361E-01
  3.720000E+01  2.752257E-01
  3.730000E+01  2.237789E-01
  3.740000E+01  1.287464E-01
  3.750000E+01 -2.460163E-03
  3.760000E+01 -1.514480E-01
  3.770000E+01 -2.931473E-01
  3.780000E+01 -4.023819E-01
  3.790000E+01 -4.607845E-01
  3.800000E+01 -4.619749E-01
  3.810000E+01 -4.134315E-01
  3.820000E+01 -3.344957E-01
  3.830000E+01 -2.511344E-01
  3.840000E+01 -1.890437E-01
  3.850000E+01 -1.671231E-01
  3.860000E+01 -1.931401E-01
  3.870000E+01 -2.626491E-01
  3.880000E+01 -3.611934E-01
  3.890000E+01 -4.688481E-01
  3.900000E+01 -5.655738E-01
  3.910000E+01 -6.357874E-01
  3.920000E+01 -6.710021E-01
  3.930000E+01 -6.701381E-01
  3.940000E+01 -6.378845E-01
  3.950000E+01 -5.820361E-01
  3.960000E+01 -5.108850E-01
  3.970000E+01 -4.315050E-01
  3.980000E+01 -3.492757E-01
  3.990000E+01 -2.684424E-01
  4.000000E+01 -1.931182E-01
  4.010000E+01 -1.280260E-01
  4.020000E+01 -7.845956E-02
  4.030000E+01 -4.931918E-02
  4.040000E+01 -4.350068E-02
  4.050000E+01 -6.021421E-02
  4.060000E+01 -9.389671E-02
  4.070000E+01 -1.342321E-01
  4.080000E+01 -1.674732E-01
  4.090000E+01 -1.788775E-01
  4.100000E+01 -1.557474E-01
  4.110000E+01 -9.038131E-02
  4.120000E+01  1.775917E-02
  4.130000E+01  1.611962E-01
  4.140000E+01  3.251549E-01
  4.150000E+01  4.897815E-01
  4.160000E+01  6.334777E-01
  4.170000E+01  7.367209E-01
  4.180000E+01  7.856103E-01
  4.190000E+01  7.743901E-01
  4.200000E+01  7.063704E-01
  4.210000E+01  5.929833E-01
  4.220000E+01  4.511251E-01
  4.230000E+01  2.993603E-01
  4.240000E+01  1.538895E-01
  4.250000E+01  2.530552E-02
  4.260000E+01 -8.298965E-02
  4.270000E+01 -1.742490E-01
  4.280000E+01 -2.558534E-01
  4.290000E+01 -3.355216E-01
  4.300000E+01 -4.174060E-01
  4.310000E+01 -4.993226E-01
  4.320000E+01 -5.720788E-01
  4.330000E+01 -6.212535E-01
  4.340000E+01 -6.310361E-01
  4.350000E+01 -5.890582E-01
  4.360000E+01 -4.907914E-01
  4.370000E+01 -3.421524E-01
  4.380000E+01 -1.594454E-01
  4.390000E+01  3.345842E-02
  4.400000E+01  2.099985E-01
  4.410000E+01  3.465606E-01
  4.420000E+01  4.273690E-01
  4.430000E+01  4.473791E-01
  4.440000E+01  4.125163E-01
  4.450000E+01  3.373624E-01
  4.460000E+01  2.410728E-01
  4.470000E+01  1.427077E-01
  4.480000E+01  5.719836E-02
  4.490000E+01 -7.139103E-03
  4.500000E+01 -4.914300E-02
  4.510000E+01 -7.354934E-02
  4.520000E+01 -8.850937E-02
  4.530000E+01 -1.026511E-01
  4.540000E+01 -1.224246E-01
  4.550000E+01 -1.502722E-01
  4.560000E+01 -1.838983E-01
  4.570000E+01 -2.166597E-01
  4.580000E+01 -2.389084E-01
  4.590000E+01 -2.400001E-01
  4.600000E+01 -2.106077E-01
  4.610000E+01 -1.449324E-01
  4.620000E+01 -4.238457E-02
  4.630000E+01  9.166113E-02
  4.640000E+01  2.463089E-01
  4.650000E+01  4.068298E-01
  4.660000E+01  5.573347E-01
  4.670000E+01  6.838634E-01
  4.680000E+01  7.771243E-01
  4.690000E+01  8.341200E-01
  4.700000E+01  8.581476E-01
  4.710000E+01  8.571139E-01
  4.720000E+01  8.406322E-01
  4.730000E+01  8.167848E-01
  4.740000E+01  7.895939E-01
  4.750000E+01  7.580439E-01
  4.760000E+01  7.170004E-01
  4.770000E+01  6.597128E-01
  4.780000E+01  5.810114E-01
  4.790000E+01  4.800224E-01
  4.800000E+01  3.613535E-01
  4.810000E+01  2.342204E-01
  4.820000E+01  1.097317E-01
  4.830000E+01 -2.753450E-03
  4.840000E+01 -9.887444E-02
  4.850000E+01 -1.808759E-01
  4.860000E+01 -2.568499E-01
  4.870000E+01 -3.377221E-01
  4.880000E+01 -4.329235E-01
  4.890000E+01 -5.462300E-01
  4.900000E+01 -6.732843E-01
  4.910000E+01 -8.018105E-01
  4.920000E+01 -9.146383E-01
  4.930000E+01 -9.946830E-01
  4.940000E+01 -1.030304E+00
  4.950000E+01 -1.019258E+00
  4.960000E+01 -9.698691E-01
  4.970000E+01 -8.988977E-01
  4.980000E+01 -8.266951E-01
  4.990000E+01 -7.711149E-01
  5.000000E+01 -7.421151E-01
  5.010000E+01 -7.387909E-01
  5.020000E+01 -7.498356E-01
  5.030000E+01 -7.573160E-01
  5.040000E+01 -7.426201E-01
  5.050000E+01 -6.927409E-01
  5.060000E+01 -6.049125E-01
  5.070000E+01 -4.881387E-01
  5.080000E+01 -3.610991E-01
  5.090000E+01 -2.470201E-01
  5.100000E+01 -1.670122E-01
  5.110000E+01 -1.338262E-01
  5.120000E+01 -1.478496E-01
  5.130000E+01 -1.965011E-01
  5.140000E+01 -2.572002E-01
  5.150000E+01 -3.030808E-01
  5.160000E+01 -3.098744E-01
  5.170000E+01 -2.621032E-01
  5.180000E+01 -1.569615E-01
  5.190000E+01 -4.922956E-03
  5.200000E+01  1.729922E-01
  5.210000E+01  3.504922E-01
  5.220000E+01  5.024112E-01
  5.230000E+01  6.105919E-01
  5.240000E+01  6.678218E-01
  5.250000E+01  6.789534E-01
  5.260000E+01  6.590810E-01
  5.270000E+01  6.293805E-01
  5.280000E+01  6.117531E-01
  5.290000E+01  6.236343E-01
  5.300000E+01  6.741957E-01
  5.310000E+01  7.627434E-01
  5.320000E+01  8.795176E-01
  5.330000E+01  1.008500E+00
  5.340000E+01  1.131375E+00
  5.350000E+01  1.231577E+00
  5.360000E+01  1.297460E+00
  5.370000E+01  1.323909E+00
  5.380000E+01  1.312217E+00
  5.390000E+01  1.268485E+00
  5.400000E+01  1.201174E+00
  5.410000E+01  1.118558E+00
  5.420000E+01  1.026785E+00
  5.430000E+01  9.289362E-01
  5.440000E+01  8.251998E-01
  5.450000E+01  7.138968E-01
  5.460000E+01  5.929152E-01
  5.470000E+01  4.610501E-01
  5.480000E+01  3.188485E-01
  5.490000E+01  1.687676E-01
  5.500000E+01  1.468596E-02
  5.510000E+01 -1.390014E-01
  5.520000E+01 -2.883774E-01
  5.530000E+01 -4.307748E-01
  5.540000E+01 -5.651098E-01
  5.550000E+01 -6.917080E-01
  5.560000E+01 -8.116973E-01
  5.570000E+01 -9.261488E-01
  5.580000E+01 -1.035203E+00
  5.590000E+01 -1.137413E+00
  5.600000E+01 -1.229498E+00
  5.610000E+01 -1.306601E+00
  5.620000E+01 -1.363056E+00
  5.630000E+01 -1.393549E+00
  5.640000E+01 -1.394450E+00
  5.650000E+01 -1.364999E+00
  5.660000E+01 -1.308035E+00
  5.670000E+01 -1.229988E+00
  5.680000E+01 -1.140017E+00
  5.690000E+01 -1.048392E+00
  5.700000E+01 -9.644380E-01
  5.710000E+01 -8.945460E-01
  5.720000E+01 -8.408100E-01
  5.730000E+01 -8.007192E-01
  5.740000E+01 -7.680824E-01
  5.750000E+01 -7.349870E-01
  5.760000E+01 -6.942586E-01
  5.770000E+01 -6.416778E-01
  5.780000E+01 -5.772298E-01
  5.790000E+01 -5.049213E-01
  5.800000E+01 -4.311405E-01
  5.810000E+01 -3.620198E-01
  5.820000E+01 -3.006319E-01
  5.830000E+01 -2.449705E-01
  5.840000E+01 -1.874762E-01
  5.850000E+01 -1.164117E-01
  5.860000E+01 -1.880553E-02
  5.870000E+01  1.158365E-01
  5.880000E+01  2.921417E-01
  5.890000E+01  5.068264E-01
  5.900000E+01  7.486334E-01
  5.910000E+01  1.000282E+00
  5.920000E+01  1.241854E+00
  5.930000E+01  1.454608E+00
  5.940000E+01  1.624155E+00
  5.950000E+01  1.742159E+00
  5.960000E+01  1.806295E+00
  5.970000E+01  1.818767E+00
  5.980000E+01  1.784159E+00
  5.990000E+01  1.707525E+00
  6.000000E+01  1.593449E+00
  6.010000E+01  1.446323E+00
  6.020000E+01  1.271551E+00
  6.030000E+01  1.076934E+00
  6.040000E+01  8.734008E-01
  6.050000E+01  6.744128E-01
  6.060000E+01  4.939192E-01
  6.070000E+01  3.433201E-01
  6.080000E+01  2.283796E-01
  6.090000E+01  1.472019E-01
  6.100000E+01  9.015026E-02
  6.110000E+01  4.202538E-02
  6.120000E+01 -1.390935E-02
  6.130000E+01 -9.111076E-02
  6.140000E+01 -1.955364E-01
  6.150000E+01 -3.233159E-01
  6.160000E+01 -4.610920E-01
  6.170000E+01 -5.890374E-01
  6.180000E+01 -6.857596E-01
  6.190000E+01 -7.337479E-01
  6.200000E+01 -7.238625E-01
  6.210000E+01 -6.576600E-01
  6.220000E+01 -5.469976E-01
  6.230000E+01 -4.111419E-01
  6.240000E+01 -2.722938E-01
  6.250000E+01 -1.508171E-01
  6.260000E+01 -6.143776E-02
  6.270000E+01 -1.128988E-02
  6.280000E+01 -7.461825E-05
  6.290000E+01 -2.197452E-02
  6.300000E+01 -6.851493E-02
  6.310000E+01 -1.314102E-01
  6.320000E+01 -2.045862E-01
  6.330000E+01 -2.849466E-01
  6.340000E+01 -3.719023E-01
  6.350000E+01 -4.660562E-01
  6.360000E+01 -5.676256E-01
  6.370000E+01 -6.751544E-01
  6.380000E+01 -7.848737E-01
  6.390000E+01 -8.907962E-01
  6.400000E+01 -9.853948E-01
  6.410000E+01 -1.060585E+00
  6.420000E+01 -1.108726E+00
  6.430000E+01 -1.123453E+00
  6.440000E+01 -1.100270E+00
  6.450000E+01 -1.036933E+00
  6.460000E+01 -9.336665E-01
  6.470000E+01 -7.932359E-01
  6.480000E+01 -6.208239E-01
  6.490000E+01 -4.236452E-01
  6.500000E+01 -2.102659E-01
  6.510000E+01  1.030394E-02
  6.520000E+01  2.295573E-01
  6.530000E+01  4.402079E-01
  6.540000E+01  6.364303E-01
  6.550000E+01  8.135077E-01
  6.560000E+01  9.669930E-01
  6.570000E+01  1.091715E+00
  6.580000E+01  1.181098E+00
  6.590000E+01  1.227248E+00
  6.600000E+01  1.222029E+00
  6.610000E+01  1.159052E+00
  6.620000E+01  1.036089E+00
  6.630000E+01  8.572099E-01
  6.640000E+01  6.338898E-01
  6.650000E+01  3.845368E-01
