 Variables = "t (s)" "<greek>z</greek> (m)" 
  1.000000E-01  0.000000E+00
  2.000000E-01 -9.613934E-06
  3.000000E-01 -3.627078E-05
  4.000000E-01 -7.626300E-05
  5.000000E-01 -1.253286E-04
  6.000000E-01 -1.786919E-04
  7.000000E-01 -2.311232E-04
  8.000000E-01 -2.770178E-04
  9.000000E-01 -3.104906E-04
  1.000000E+00 -3.254849E-04
  1.100000E+00 -3.158918E-04
  1.200000E+00 -2.756770E-04
  1.300000E+00 -1.990097E-04
  1.400000E+00 -8.039092E-05
  1.500000E+00  8.522444E-05
  1.600000E+00  3.023159E-04
  1.700000E+00  5.746997E-04
  1.800000E+00  9.054500E-04
  1.900000E+00  1.296841E-03
  2.000000E+00  1.750311E-03
  2.100000E+00  2.266459E-03
  2.200000E+00  2.845054E-03
  2.300000E+00  3.485085E-03
  2.400000E+00  4.184825E-03
  2.500000E+00  4.941920E-03
  2.600000E+00  5.753494E-03
  2.700000E+00  6.616273E-03
  2.800000E+00  7.526710E-03
  2.900000E+00  8.481122E-03
  3.000000E+00  9.475816E-03
  3.100000E+00  1.050721E-02
  3.200000E+00  1.157195E-02
  3.300000E+00  1.266700E-02
  3.400000E+00  1.378966E-02
  3.500000E+00  1.493771E-02
  3.600000E+00  1.610931E-02
  3.700000E+00  1.730305E-02
  3.800000E+00  1.851790E-02
  3.900000E+00  1.975311E-02
  4.000000E+00  2.100814E-02
  4.100000E+00  2.228256E-02
  4.200000E+00  2.357589E-02
  4.300000E+00  2.488750E-02
  4.400000E+00  2.621648E-02
  4.500000E+00  2.756150E-02
  4.600000E+00  2.892072E-02
  4.700000E+00  3.029171E-02
  4.800000E+00  3.167135E-02
  4.900000E+00  3.305583E-02
  5.000000E+00  3.444067E-02
  5.100000E+00  3.582066E-02
  5.200000E+00  3.719002E-02
  5.300000E+00  3.854241E-02
  5.400000E+00  3.987107E-02
  5.500000E+00  4.116891E-02
  5.600000E+00  4.242868E-02
  5.700000E+00  4.364303E-02
  5.800000E+00  4.480467E-02
  5.900000E+00  4.590646E-02
  6.000000E+00  4.694144E-02
  6.100000E+00  4.790289E-02
  6.200000E+00  4.878431E-02
  6.300000E+00  4.957935E-02
  6.400000E+00  5.028175E-02
  6.500000E+00  5.088513E-02
  6.600000E+00  5.138288E-02
  6.700000E+00  5.176791E-02
  6.800000E+00  5.203241E-02
  6.900000E+00  5.216765E-02
  7.000000E+00  5.216370E-02
  7.100000E+00  5.200928E-02
  7.200000E+00  5.169152E-02
  7.300000E+00  5.119589E-02
  7.400000E+00  5.050618E-02
  7.500000E+00  4.960447E-02
  7.600000E+00  4.847133E-02
  7.700000E+00  4.708604E-02
  7.800000E+00  4.542695E-02
  7.900000E+00  4.347190E-02
  8.000000E+00  4.119882E-02
  8.100000E+00  3.858636E-02
  8.200000E+00  3.561459E-02
  8.300000E+00  3.226582E-02
  8.400000E+00  2.852535E-02
  8.500000E+00  2.438232E-02
  8.600000E+00  1.983049E-02
  8.700000E+00  1.486892E-02
  8.800000E+00  9.502667E-03
  8.900000E+00  3.743260E-03
  9.000000E+00 -2.390920E-03
  9.100000E+00 -8.874438E-03
  9.200000E+00 -1.567479E-02
  9.300000E+00 -2.275261E-02
  9.400000E+00 -3.006203E-02
  9.500000E+00 -3.755134E-02
  9.600000E+00 -4.516375E-02
  9.700000E+00 -5.283838E-02
  9.800000E+00 -6.051142E-02
  9.900000E+00 -6.811741E-02
  1.000000E+01 -7.559059E-02
  1.010000E+01 -8.286633E-02
  1.020000E+01 -8.988255E-02
  1.030000E+01 -9.658115E-02
  1.040000E+01 -1.029093E-01
  1.050000E+01 -1.088206E-01
  1.060000E+01 -1.142762E-01
  1.070000E+01 -1.192455E-01
  1.080000E+01 -1.237069E-01
  1.090000E+01 -1.276480E-01
  1.100000E+01 -1.310657E-01
  1.110000E+01 -1.339661E-01
  1.120000E+01 -1.363638E-01
  1.130000E+01 -1.382817E-01
  1.140000E+01 -1.397493E-01
  1.150000E+01 -1.408022E-01
  1.160000E+01 -1.414803E-01
  1.170000E+01 -1.418268E-01
  1.180000E+01 -1.418863E-01
  1.190000E+01 -1.417034E-01
  1.200000E+01 -1.413210E-01
  1.210000E+01 -1.407793E-01
  1.220000E+01 -1.401136E-01
  1.230000E+01 -1.393540E-01
  1.240000E+01 -1.385235E-01
  1.250000E+01 -1.376380E-01
  1.260000E+01 -1.367050E-01
  1.270000E+01 -1.357237E-01
  1.280000E+01 -1.346846E-01
  1.290000E+01 -1.335698E-01
  1.300000E+01 -1.323535E-01
  1.310000E+01 -1.310023E-01
  1.320000E+01 -1.294760E-01
  1.330000E+01 -1.277288E-01
  1.340000E+01 -1.257102E-01
  1.350000E+01 -1.233662E-01
  1.360000E+01 -1.206405E-01
  1.370000E+01 -1.174758E-01
  1.380000E+01 -1.138151E-01
  1.390000E+01 -1.096031E-01
  1.400000E+01 -1.047872E-01
  1.410000E+01 -9.931875E-02
  1.420000E+01 -9.315423E-02
  1.430000E+01 -8.625621E-02
  1.440000E+01 -7.859429E-02
  1.450000E+01 -7.014594E-02
  1.460000E+01 -6.089726E-02
  1.470000E+01 -5.084365E-02
  1.480000E+01 -3.999036E-02
  1.490000E+01 -2.835307E-02
  1.500000E+01 -1.595821E-02
  1.510000E+01 -2.843379E-03
  1.520000E+01  1.094244E-02
  1.530000E+01  2.533873E-02
  1.540000E+01  4.027340E-02
  1.550000E+01  5.566281E-02
  1.560000E+01  7.141207E-02
  1.570000E+01  8.741531E-02
  1.580000E+01  1.035563E-01
  1.590000E+01  1.197090E-01
  1.600000E+01  1.357389E-01
  1.610000E+01  1.515038E-01
  1.620000E+01  1.668552E-01
  1.630000E+01  1.816402E-01
  1.640000E+01  1.957033E-01
  1.650000E+01  2.088882E-01
  1.660000E+01  2.210404E-01
  1.670000E+01  2.320095E-01
  1.680000E+01  2.416515E-01
  1.690000E+01  2.498319E-01
  1.700000E+01  2.564279E-01
  1.710000E+01  2.613312E-01
  1.720000E+01  2.644504E-01
  1.730000E+01  2.657131E-01
  1.740000E+01  2.650682E-01
  1.750000E+01  2.624870E-01
  1.760000E+01  2.579652E-01
  1.770000E+01  2.515229E-01
  1.780000E+01  2.432056E-01
  1.790000E+01  2.330833E-01
  1.800000E+01  2.212504E-01
  1.810000E+01  2.078236E-01
  1.820000E+01  1.929408E-01
  1.830000E+01  1.767579E-01
  1.840000E+01  1.594466E-01
  1.850000E+01  1.411910E-01
  1.860000E+01  1.221837E-01
  1.870000E+01  1.026224E-01
  1.880000E+01  8.270596E-02
  1.890000E+01  6.263019E-02
  1.900000E+01  4.258425E-02
  1.910000E+01  2.274689E-02
  1.920000E+01  3.283121E-03
  1.930000E+01 -1.565879E-02
  1.940000E+01 -3.394982E-02
  1.950000E+01 -5.148212E-02
  1.960000E+01 -6.817044E-02
  1.970000E+01 -8.395283E-02
  1.980000E+01 -9.879080E-02
  1.990000E+01 -1.126687E-01
  2.000000E+01 -1.255927E-01
  2.010000E+01 -1.375890E-01
  2.020000E+01 -1.487016E-01
  2.030000E+01 -1.589899E-01
  2.040000E+01 -1.685253E-01
  2.050000E+01 -1.773885E-01
  2.060000E+01 -1.856659E-01
  2.070000E+01 -1.934461E-01
  2.080000E+01 -2.008169E-01
  2.090000E+01 -2.078621E-01
  2.100000E+01 -2.146584E-01
  2.110000E+01 -2.212732E-01
  2.120000E+01 -2.277624E-01
  2.130000E+01 -2.341686E-01
  2.140000E+01 -2.405199E-01
  2.150000E+01 -2.468294E-01
  2.160000E+01 -2.530949E-01
  2.170000E+01 -2.592991E-01
  2.180000E+01 -2.654102E-01
  2.190000E+01 -2.713833E-01
  2.200000E+01 -2.771615E-01
  2.210000E+01 -2.826779E-01
  2.220000E+01 -2.878570E-01
  2.230000E+01 -2.926171E-01
  2.240000E+01 -2.968723E-01
  2.250000E+01 -3.005341E-01
  2.260000E+01 -3.035141E-01
  2.270000E+01 -3.057252E-01
  2.280000E+01 -3.070833E-01
  2.290000E+01 -3.075092E-01
  2.300000E+01 -3.069293E-01
  2.310000E+01 -3.052772E-01
  2.320000E+01 -3.024939E-01
  2.330000E+01 -2.985286E-01
  2.340000E+01 -2.933395E-01
  2.350000E+01 -2.868933E-01
  2.360000E+01 -2.791660E-01
  2.370000E+01 -2.701425E-01
  2.380000E+01 -2.598168E-01
  2.390000E+01 -2.481917E-01
  2.400000E+01 -2.352791E-01
  2.410000E+01 -2.210996E-01
  2.420000E+01 -2.056825E-01
  2.430000E+01 -1.890661E-01
  2.440000E+01 -1.712975E-01
  2.450000E+01 -1.524330E-01
  2.460000E+01 -1.325376E-01
  2.470000E+01 -1.116857E-01
  2.480000E+01 -8.996084E-02
  2.490000E+01 -6.745555E-02
  2.500000E+01 -4.427138E-02
  2.510000E+01 -2.051848E-02
  2.520000E+01  3.684868E-03
  2.530000E+01  2.821291E-02
  2.540000E+01  5.293336E-02
  2.550000E+01  7.770846E-02
  2.560000E+01  1.023964E-01
  2.570000E+01  1.268526E-01
  2.580000E+01  1.509319E-01
  2.590000E+01  1.744900E-01
  2.600000E+01  1.973856E-01
  2.610000E+01  2.194824E-01
  2.620000E+01  2.406512E-01
  2.630000E+01  2.607717E-01
  2.640000E+01  2.797346E-01
  2.650000E+01  2.974431E-01
  2.660000E+01  3.138141E-01
  2.670000E+01  3.287799E-01
  2.680000E+01  3.422882E-01
  2.690000E+01  3.543031E-01
  2.700000E+01  3.648048E-01
  2.710000E+01  3.737894E-01
  2.720000E+01  3.812678E-01
  2.730000E+01  3.872647E-01
  2.740000E+01  3.918171E-01
  2.750000E+01  3.949725E-01
  2.760000E+01  3.967866E-01
  2.770000E+01  3.973216E-01
  2.780000E+01  3.966434E-01
  2.790000E+01  3.948197E-01
  2.800000E+01  3.919176E-01
  2.810000E+01  3.880018E-01
  2.820000E+01  3.831327E-01
  2.830000E+01  3.773651E-01
  2.840000E+01  3.707469E-01
  2.850000E+01  3.633189E-01
  2.860000E+01  3.551143E-01
  2.870000E+01  3.461591E-01
  2.880000E+01  3.364732E-01
  2.890000E+01  3.260709E-01
  2.900000E+01  3.149635E-01
  2.910000E+01  3.031605E-01
  2.920000E+01  2.906721E-01
  2.930000E+01  2.775118E-01
  2.940000E+01  2.636987E-01
  2.950000E+01  2.492602E-01
  2.960000E+01  2.342341E-01
  2.970000E+01  2.186709E-01
  2.980000E+01  2.026357E-01
  2.990000E+01  1.862092E-01
  3.000000E+01  1.694887E-01
  3.010000E+01  1.525883E-01
  3.020000E+01  1.356385E-01
  3.030000E+01  1.187848E-01
  3.040000E+01  1.021860E-01
  3.050000E+01  8.601146E-02
  3.060000E+01  7.043815E-02
  3.070000E+01  5.564651E-02
  3.080000E+01  4.181620E-02
  3.090000E+01  2.912131E-02
  3.100000E+01  1.772526E-02
  3.110000E+01  7.775576E-03
  3.120000E+01 -6.013803E-04
  3.130000E+01 -7.305469E-03
  3.140000E+01 -1.226754E-02
  3.150000E+01 -1.545370E-02
  3.160000E+01 -1.686894E-02
  3.170000E+01 -1.655993E-02
  3.180000E+01 -1.461697E-02
  3.190000E+01 -1.117475E-02
  3.200000E+01 -6.412125E-03
  3.210000E+01 -5.506128E-04
  3.220000E+01  6.148326E-03
  3.230000E+01  1.338721E-02
  3.240000E+01  2.083767E-02
  3.250000E+01  2.814666E-02
  3.260000E+01  3.494369E-02
  3.270000E+01  4.084897E-02
  3.280000E+01  4.548214E-02
  3.290000E+01  4.847158E-02
  3.300000E+01  4.946400E-02
  3.310000E+01  4.813399E-02
  3.320000E+01  4.419341E-02
  3.330000E+01  3.740029E-02
  3.340000E+01  2.756704E-02
  3.350000E+01  1.456763E-02
  3.360000E+01 -1.656386E-03
  3.370000E+01 -2.109127E-02
  3.380000E+01 -4.364804E-02
  3.390000E+01 -6.916119E-02
  3.400000E+01 -9.738913E-02
  3.410000E+01 -1.280166E-01
  3.420000E+01 -1.606590E-01
  3.430000E+01 -1.948680E-01
  3.440000E+01 -2.301401E-01
  3.450000E+01 -2.659253E-01
  3.460000E+01 -3.016380E-01
  3.470000E+01 -3.366693E-01
  3.480000E+01 -3.703991E-01
  3.490000E+01 -4.022100E-01
  3.500000E+01 -4.315007E-01
  3.510000E+01 -4.576993E-01
  3.520000E+01 -4.802765E-01
  3.530000E+01 -4.987577E-01
  3.540000E+01 -5.127342E-01
  3.550000E+01 -5.218726E-01
  3.560000E+01 -5.259233E-01
  3.570000E+01 -5.247258E-01
  3.580000E+01 -5.182130E-01
  3.590000E+01 -5.064131E-01
  3.600000E+01 -4.894485E-01
  3.610000E+01 -4.675333E-01
  3.620000E+01 -4.409680E-01
  3.630000E+01 -4.101322E-01
  3.640000E+01 -3.754758E-01
  3.650000E+01 -3.375078E-01
  3.660000E+01 -2.967848E-01
  3.670000E+01 -2.538969E-01
  3.680000E+01 -2.094548E-01
  3.690000E+01 -1.640748E-01
  3.700000E+01 -1.183656E-01
  3.710000E+01 -7.291397E-02
  3.720000E+01 -2.827258E-02
  3.730000E+01  1.505180E-02
  3.740000E+01  5.660814E-02
  3.750000E+01  9.600945E-02
  3.760000E+01  1.329390E-01
  3.770000E+01  1.671546E-01
  3.780000E+01  1.984903E-01
  3.790000E+01  2.268564E-01
  3.800000E+01  2.522369E-01
  3.810000E+01  2.746853E-01
  3.820000E+01  2.943180E-01
  3.830000E+01  3.113069E-01
  3.840000E+01  3.258699E-01
  3.850000E+01  3.382611E-01
  3.860000E+01  3.487598E-01
  3.870000E+01  3.576592E-01
  3.880000E+01  3.652562E-01
  3.890000E+01  3.718398E-01
  3.900000E+01  3.776823E-01
  3.910000E+01  3.830298E-01
  3.920000E+01  3.880951E-01
  3.930000E+01  3.930520E-01
  3.940000E+01  3.980303E-01
  3.950000E+01  4.031140E-01
  3.960000E+01  4.083400E-01
  3.970000E+01  4.136994E-01
  3.980000E+01  4.191398E-01
  3.990000E+01  4.245693E-01
  4.000000E+01  4.298620E-01
  4.010000E+01  4.348640E-01
  4.020000E+01  4.394004E-01
  4.030000E+01  4.432832E-01
  4.040000E+01  4.463184E-01
  4.050000E+01  4.483137E-01
  4.060000E+01  4.490855E-01
  4.070000E+01  4.484650E-01
  4.080000E+01  4.463040E-01
  4.090000E+01  4.424788E-01
  4.100000E+01  4.368935E-01
  4.110000E+01  4.294814E-01
  4.120000E+01  4.202058E-01
  4.130000E+01  4.090589E-01
  4.140000E+01  3.960594E-01
  4.150000E+01  3.812495E-01
  4.160000E+01  3.646908E-01
  4.170000E+01  3.464594E-01
  4.180000E+01  3.266404E-01
  4.190000E+01  3.053226E-01
  4.200000E+01  2.825931E-01
  4.210000E+01  2.585324E-01
  4.220000E+01  2.332096E-01
  4.230000E+01  2.066789E-01
  4.240000E+01  1.789775E-01
  4.250000E+01  1.501232E-01
  4.260000E+01  1.201153E-01
  4.270000E+01  8.893484E-02
  4.280000E+01  5.654785E-02
  4.290000E+01  2.290858E-02
  4.300000E+01 -1.203545E-02
  4.310000E+01 -4.833759E-02
  4.320000E+01 -8.604545E-02
  4.330000E+01 -1.251938E-01
  4.340000E+01 -1.657971E-01
  4.350000E+01 -2.078424E-01
  4.360000E+01 -2.512819E-01
  4.370000E+01 -2.960272E-01
  4.380000E+01 -3.419433E-01
  4.390000E+01 -3.888449E-01
  4.400000E+01 -4.364930E-01
  4.410000E+01 -4.845942E-01
  4.420000E+01 -5.328008E-01
  4.430000E+01 -5.807134E-01
  4.440000E+01 -6.278847E-01
  4.450000E+01 -6.738253E-01
  4.460000E+01 -7.180115E-01
  4.470000E+01 -7.598942E-01
  4.480000E+01 -7.989088E-01
  4.490000E+01 -8.344873E-01
  4.500000E+01 -8.660695E-01
  4.510000E+01 -8.931159E-01
  4.520000E+01 -9.151202E-01
  4.530000E+01 -9.316214E-01
  4.540000E+01 -9.422154E-01
  4.550000E+01 -9.465654E-01
  4.560000E+01 -9.444116E-01
  4.570000E+01 -9.355786E-01
  4.580000E+01 -9.199814E-01
  4.590000E+01 -8.976293E-01
  4.600000E+01 -8.686279E-01
  4.610000E+01 -8.331789E-01
  4.620000E+01 -7.915771E-01
  4.630000E+01 -7.442063E-01
  4.640000E+01 -6.915324E-01
  4.650000E+01 -6.340952E-01
  4.660000E+01 -5.724981E-01
  4.670000E+01 -5.073969E-01
  4.680000E+01 -4.394872E-01
  4.690000E+01 -3.694916E-01
  4.700000E+01 -2.981456E-01
  4.710000E+01 -2.261849E-01
  4.720000E+01 -1.543314E-01
  4.730000E+01 -8.328137E-02
  4.740000E+01 -1.369339E-02
  4.750000E+01  5.382172E-02
  4.760000E+01  1.187097E-01
  4.770000E+01  1.804803E-01
  4.780000E+01  2.387120E-01
  4.790000E+01  2.930564E-01
  4.800000E+01  3.432387E-01
  4.810000E+01  3.890581E-01
  4.820000E+01  4.303855E-01
  4.830000E+01  4.671591E-01
  4.840000E+01  4.993795E-01
  4.850000E+01  5.271030E-01
  4.860000E+01  5.504334E-01
  4.870000E+01  5.695137E-01
  4.880000E+01  5.845171E-01
  4.890000E+01  5.956375E-01
  4.900000E+01  6.030803E-01
  4.910000E+01  6.070537E-01
  4.920000E+01  6.077602E-01
  4.930000E+01  6.053895E-01
  4.940000E+01  6.001121E-01
  4.950000E+01  5.920739E-01
  4.960000E+01  5.813932E-01
  4.970000E+01  5.681577E-01
  4.980000E+01  5.524243E-01
  4.990000E+01  5.342197E-01
  5.000000E+01  5.135424E-01
  5.010000E+01  4.903665E-01
  5.020000E+01  4.646509E-01
  5.030000E+01  4.363394E-01
  5.040000E+01  4.053630E-01
  5.050000E+01  3.716523E-01
  5.060000E+01  3.351452E-01
  5.070000E+01  2.957944E-01
  5.080000E+01  2.535750E-01
  5.090000E+01  2.084921E-01
  5.100000E+01  1.605872E-01
  5.110000E+01  1.099442E-01
  5.120000E+01  5.669412E-02
  5.130000E+01  1.018661E-03
  5.140000E+01 -5.684721E-02
  5.150000E+01 -1.166145E-01
  5.160000E+01 -1.779407E-01
  5.170000E+01 -2.404320E-01
  5.180000E+01 -3.036465E-01
  5.190000E+01 -3.670995E-01
  5.200000E+01 -4.302697E-01
  5.210000E+01 -4.926069E-01
  5.220000E+01 -5.535401E-01
  5.230000E+01 -6.124874E-01
  5.240000E+01 -6.688657E-01
  5.250000E+01 -7.221014E-01
  5.260000E+01 -7.716407E-01
  5.270000E+01 -8.169606E-01
  5.280000E+01 -8.575785E-01
  5.290000E+01 -8.930620E-01
  5.300000E+01 -9.230377E-01
  5.310000E+01 -9.471988E-01
  5.320000E+01 -9.653114E-01
  5.330000E+01 -9.772197E-01
  5.340000E+01 -9.828493E-01
  5.350000E+01 -9.822091E-01
  5.360000E+01 -9.753910E-01
  5.370000E+01 -9.625686E-01
  5.380000E+01 -9.439935E-01
  5.390000E+01 -9.199900E-01
  5.400000E+01 -8.909487E-01
  5.410000E+01 -8.573179E-01
  5.420000E+01 -8.195942E-01
  5.430000E+01 -7.783122E-01
  5.440000E+01 -7.340325E-01
  5.450000E+01 -6.873301E-01
  5.460000E+01 -6.387817E-01
  5.470000E+01 -5.889538E-01
  5.480000E+01 -5.383899E-01
  5.490000E+01 -4.875995E-01
  5.500000E+01 -4.370469E-01
  5.510000E+01 -3.871421E-01
  5.520000E+01 -3.382323E-01
  5.530000E+01 -2.905949E-01
  5.540000E+01 -2.444333E-01
  5.550000E+01 -1.998734E-01
  5.560000E+01 -1.569626E-01
  5.570000E+01 -1.156714E-01
  5.580000E+01 -7.589599E-02
  5.590000E+01 -3.746368E-02
  5.600000E+01 -1.399529E-04
  5.610000E+01  3.636279E-02
  5.620000E+01  7.237482E-02
  5.630000E+01  1.082575E-01
  5.640000E+01  1.443907E-01
  5.650000E+01  1.811592E-01
  5.660000E+01  2.189394E-01
  5.670000E+01  2.580856E-01
  5.680000E+01  2.989167E-01
  5.690000E+01  3.417039E-01
  5.700000E+01  3.866591E-01
  5.710000E+01  4.339256E-01
  5.720000E+01  4.835693E-01
  5.730000E+01  5.355732E-01
  5.740000E+01  5.898331E-01
  5.750000E+01  6.461562E-01
  5.760000E+01  7.042620E-01
  5.770000E+01  7.637857E-01
  5.780000E+01  8.242838E-01
  5.790000E+01  8.852420E-01
  5.800000E+01  9.460858E-01
  5.810000E+01  1.006192E+00
  5.820000E+01  1.064902E+00
  5.830000E+01  1.121537E+00
  5.840000E+01  1.175413E+00
  5.850000E+01  1.225858E+00
  5.860000E+01  1.272225E+00
  5.870000E+01  1.313909E+00
  5.880000E+01  1.350362E+00
  5.890000E+01  1.381105E+00
  5.900000E+01  1.405737E+00
  5.910000E+01  1.423950E+00
  5.920000E+01  1.435531E+00
  5.930000E+01  1.440367E+00
  5.940000E+01  1.438449E+00
  5.950000E+01  1.429870E+00
  5.960000E+01  1.414823E+00
  5.970000E+01  1.393591E+00
  5.980000E+01  1.366545E+00
  5.990000E+01  1.334128E+00
  6.000000E+01  1.296849E+00
  6.010000E+01  1.255263E+00
  6.020000E+01  1.209965E+00
  6.030000E+01  1.161566E+00
  6.040000E+01  1.110689E+00
  6.050000E+01  1.057944E+00
  6.060000E+01  1.003925E+00
  6.070000E+01  9.491873E-01
  6.080000E+01  8.942469E-01
  6.090000E+01  8.395651E-01
  6.100000E+01  7.855443E-01
  6.110000E+01  7.325234E-01
  6.120000E+01  6.807751E-01
  6.130000E+01  6.305067E-01
  6.140000E+01  5.818616E-01
  6.150000E+01  5.349239E-01
  6.160000E+01  4.897243E-01
  6.170000E+01  4.462474E-01
  6.180000E+01  4.044403E-01
  6.190000E+01  3.642218E-01
  6.200000E+01  3.254919E-01
  6.210000E+01  2.881411E-01
  6.220000E+01  2.520598E-01
  6.230000E+01  2.171458E-01
  6.240000E+01  1.833119E-01
  6.250000E+01  1.504910E-01
  6.260000E+01  1.186403E-01
  6.270000E+01  8.774309E-02
  6.280000E+01  5.780950E-02
  6.290000E+01  2.887460E-02
  6.300000E+01  9.953948E-04
  6.310000E+01 -2.575399E-02
  6.320000E+01 -5.128829E-02
  6.330000E+01 -7.551821E-02
  6.340000E+01 -9.835806E-02
  6.350000E+01 -1.197337E-01
  6.360000E+01 -1.395906E-01
  6.370000E+01 -1.579009E-01
  6.380000E+01 -1.746702E-01
  6.390000E+01 -1.899427E-01
  6.400000E+01 -2.038049E-01
  6.410000E+01 -2.163881E-01
  6.420000E+01 -2.278681E-01
  6.430000E+01 -2.384633E-01
  6.440000E+01 -2.484314E-01
  6.450000E+01 -2.580631E-01
  6.460000E+01 -2.676748E-01
  6.470000E+01 -2.775993E-01
  6.480000E+01 -2.881759E-01
  6.490000E+01 -2.997386E-01
  6.500000E+01 -3.126049E-01
  6.510000E+01 -3.270637E-01
  6.520000E+01 -3.433642E-01
  6.530000E+01 -3.617052E-01
  6.540000E+01 -3.822260E-01
  6.550000E+01 -4.049986E-01
  6.560000E+01 -4.300220E-01
  6.570000E+01 -4.572191E-01
  6.580000E+01 -4.864350E-01
  6.590000E+01 -5.174391E-01
  6.600000E+01 -5.499288E-01
  6.610000E+01 -5.835359E-01
  6.620000E+01 -6.178354E-01
  6.630000E+01 -6.523563E-01
  6.640000E+01 -6.865937E-01
  6.650000E+01 -7.200233E-01
