 Variables = "t (s)" "<greek>z</greek> (m)" 
  1.000000E-01  0.000000E+00
  2.000000E-01 -2.044655E-06
  3.000000E-01 -9.832260E-06
  4.000000E-01 -2.639313E-05
  5.000000E-01 -5.496406E-05
  6.000000E-01 -9.835352E-05
  7.000000E-01 -1.584239E-04
  8.000000E-01 -2.357763E-04
  9.000000E-01 -3.296940E-04
  1.000000E+00 -4.383624E-04
  1.100000E+00 -5.593422E-04
  1.200000E+00 -6.902381E-04
  1.300000E+00 -8.294679E-04
  1.400000E+00 -9.770226E-04
  1.500000E+00 -1.135097E-03
  1.600000E+00 -1.308484E-03
  1.700000E+00 -1.504637E-03
  1.800000E+00 -1.733365E-03
  1.900000E+00 -2.006132E-03
  2.000000E+00 -2.335022E-03
  2.100000E+00 -2.731439E-03
  2.200000E+00 -3.204685E-03
  2.300000E+00 -3.760553E-03
  2.400000E+00 -4.400112E-03
  2.500000E+00 -5.118837E-03
  2.600000E+00 -5.906206E-03
  2.700000E+00 -6.745868E-03
  2.800000E+00 -7.616394E-03
  2.900000E+00 -8.492597E-03
  3.000000E+00 -9.347305E-03
  3.100000E+00 -1.015345E-02
  3.200000E+00 -1.088623E-02
  3.300000E+00 -1.152519E-02
  3.400000E+00 -1.205587E-02
  3.500000E+00 -1.247093E-02
  3.600000E+00 -1.277050E-02
  3.700000E+00 -1.296162E-02
  3.800000E+00 -1.305690E-02
  3.900000E+00 -1.307230E-02
  4.000000E+00 -1.302429E-02
  4.100000E+00 -1.292662E-02
  4.200000E+00 -1.278694E-02
  4.300000E+00 -1.260381E-02
  4.400000E+00 -1.236413E-02
  4.500000E+00 -1.204167E-02
  4.600000E+00 -1.159664E-02
  4.700000E+00 -1.097670E-02
  4.800000E+00 -1.011929E-02
  4.900000E+00 -8.955289E-03
  5.000000E+00 -7.413765E-03
  5.100000E+00 -5.427422E-03
  5.200000E+00 -2.938412E-03
  5.300000E+00  9.606503E-05
  5.400000E+00  3.698841E-03
  5.500000E+00  7.869040E-03
  5.600000E+00  1.257993E-02
  5.700000E+00  1.777861E-02
  5.800000E+00  2.338780E-02
  5.900000E+00  2.930945E-02
  6.000000E+00  3.543031E-02
  6.100000E+00  4.162866E-02
  6.200000E+00  4.778206E-02
  6.300000E+00  5.377520E-02
  6.400000E+00  5.950729E-02
  6.500000E+00  6.489835E-02
  6.600000E+00  6.989371E-02
  6.700000E+00  7.446624E-02
  6.800000E+00  7.861620E-02
  6.900000E+00  8.236834E-02
  7.000000E+00  8.576670E-02
  7.100000E+00  8.886726E-02
  7.200000E+00  9.172924E-02
  7.300000E+00  9.440555E-02
  7.400000E+00  9.693356E-02
  7.500000E+00  9.932669E-02
  7.600000E+00  1.015680E-01
  7.700000E+00  1.036062E-01
  7.800000E+00  1.053549E-01
  7.900000E+00  1.066945E-01
  8.000000E+00  1.074786E-01
  8.100000E+00  1.075419E-01
  8.200000E+00  1.067113E-01
  8.300000E+00  1.048185E-01
  8.400000E+00  1.017128E-01
  8.500000E+00  9.727360E-02
  8.600000E+00  9.142155E-02
  8.700000E+00  8.412669E-02
  8.800000E+00  7.541379E-02
  8.900000E+00  6.536372E-02
  9.000000E+00  5.411105E-02
  9.100000E+00  4.183774E-02
  9.200000E+00  2.876371E-02
  9.300000E+00  1.513486E-02
  9.400000E+00  1.209538E-03
  9.500000E+00 -1.275516E-02
  9.600000E+00 -2.651646E-02
  9.700000E+00 -3.985691E-02
  9.800000E+00 -5.259264E-02
  9.900000E+00 -6.457804E-02
  1.000000E+01 -7.570676E-02
  1.010000E+01 -8.590883E-02
  1.020000E+01 -9.514458E-02
  1.030000E+01 -1.033960E-01
  1.040000E+01 -1.106563E-01
  1.050000E+01 -1.169202E-01
  1.060000E+01 -1.221734E-01
  1.070000E+01 -1.263862E-01
  1.080000E+01 -1.295090E-01
  1.090000E+01 -1.314726E-01
  1.100000E+01 -1.321919E-01
  1.110000E+01 -1.315744E-01
  1.120000E+01 -1.295323E-01
  1.130000E+01 -1.259968E-01
  1.140000E+01 -1.209343E-01
  1.150000E+01 -1.143617E-01
  1.160000E+01 -1.063600E-01
  1.170000E+01 -9.708502E-02
  1.180000E+01 -8.677184E-02
  1.190000E+01 -7.573448E-02
  1.200000E+01 -6.435829E-02
  1.210000E+01 -5.308581E-02
  1.220000E+01 -4.239652E-02
  1.230000E+01 -3.278163E-02
  1.240000E+01 -2.471534E-02
  1.250000E+01 -1.862481E-02
  1.260000E+01 -1.486097E-02
  1.270000E+01 -1.367247E-02
  1.280000E+01 -1.518508E-02
  1.290000E+01 -1.938830E-02
  1.300000E+01 -2.613064E-02
  1.310000E+01 -3.512433E-02
  1.320000E+01 -4.595949E-02
  1.330000E+01 -5.812720E-02
  1.340000E+01 -7.104994E-02
  1.350000E+01 -8.411756E-02
  1.360000E+01 -9.672618E-02
  1.370000E+01 -1.083173E-01
  1.380000E+01 -1.184142E-01
  1.390000E+01 -1.266532E-01
  1.400000E+01 -1.328066E-01
  1.410000E+01 -1.367966E-01
  1.420000E+01 -1.386978E-01
  1.430000E+01 -1.387292E-01
  1.440000E+01 -1.372351E-01
  1.450000E+01 -1.346564E-01
  1.460000E+01 -1.314949E-01
  1.470000E+01 -1.282725E-01
  1.480000E+01 -1.254883E-01
  1.490000E+01 -1.235769E-01
  1.500000E+01 -1.228713E-01
  1.510000E+01 -1.235721E-01
  1.520000E+01 -1.257266E-01
  1.530000E+01 -1.292184E-01
  1.540000E+01 -1.337685E-01
  1.550000E+01 -1.389490E-01
  1.560000E+01 -1.442070E-01
  1.570000E+01 -1.488982E-01
  1.580000E+01 -1.523276E-01
  1.590000E+01 -1.537947E-01
  1.600000E+01 -1.526403E-01
  1.610000E+01 -1.482913E-01
  1.620000E+01 -1.403013E-01
  1.630000E+01 -1.283833E-01
  1.640000E+01 -1.124335E-01
  1.650000E+01 -9.254372E-02
  1.660000E+01 -6.900155E-02
  1.670000E+01 -4.227928E-02
  1.680000E+01 -1.301085E-02
  1.690000E+01  1.804082E-02
  1.700000E+01  5.002457E-02
  1.710000E+01  8.204710E-02
  1.720000E+01  1.132218E-01
  1.730000E+01  1.427174E-01
  1.740000E+01  1.698032E-01
  1.750000E+01  1.938883E-01
  1.760000E+01  2.145534E-01
  1.770000E+01  2.315708E-01
  1.780000E+01  2.449147E-01
  1.790000E+01  2.547583E-01
  1.800000E+01  2.614591E-01
  1.810000E+01  2.655336E-01
  1.820000E+01  2.676215E-01
  1.830000E+01  2.684431E-01
  1.840000E+01  2.687507E-01
  1.850000E+01  2.692784E-01
  1.860000E+01  2.706925E-01
  1.870000E+01  2.735453E-01
  1.880000E+01  2.782363E-01
  1.890000E+01  2.849818E-01
  1.900000E+01  2.937961E-01
  1.910000E+01  3.044851E-01
  1.920000E+01  3.166531E-01
  1.930000E+01  3.297219E-01
  1.940000E+01  3.429629E-01
  1.950000E+01  3.555378E-01
  1.960000E+01  3.665481E-01
  1.970000E+01  3.750886E-01
  1.980000E+01  3.803022E-01
  1.990000E+01  3.814327E-01
  2.000000E+01  3.778711E-01
  2.010000E+01  3.691949E-01
  2.020000E+01  3.551940E-01
  2.030000E+01  3.358859E-01
  2.040000E+01  3.115154E-01
  2.050000E+01  2.825417E-01
  2.060000E+01  2.496125E-01
  2.070000E+01  2.135272E-01
  2.080000E+01  1.751923E-01
  2.090000E+01  1.355723E-01
  2.100000E+01  9.563876E-02
  2.110000E+01  5.632237E-02
  2.120000E+01  1.847014E-02
  2.130000E+01 -1.718863E-02
  2.140000E+01 -5.006613E-02
  2.150000E+01 -7.972810E-02
  2.160000E+01 -1.058942E-01
  2.170000E+01 -1.284278E-01
  2.180000E+01 -1.473161E-01
  2.190000E+01 -1.626446E-01
  2.200000E+01 -1.745673E-01
  2.210000E+01 -1.832775E-01
  2.220000E+01 -1.889803E-01
  2.230000E+01 -1.918724E-01
  2.240000E+01 -1.921278E-01
  2.250000E+01 -1.898936E-01
  2.260000E+01 -1.852948E-01
  2.270000E+01 -1.784462E-01
  2.280000E+01 -1.694720E-01
  2.290000E+01 -1.585282E-01
  2.300000E+01 -1.458254E-01
  2.310000E+01 -1.316496E-01
  2.320000E+01 -1.163761E-01
  2.330000E+01 -1.004750E-01
  2.340000E+01 -8.450552E-02
  2.350000E+01 -6.909919E-02
  2.360000E+01 -5.493150E-02
  2.370000E+01 -4.268381E-02
  2.380000E+01 -3.299845E-02
  2.390000E+01 -2.643051E-02
  2.400000E+01 -2.340083E-02
  2.410000E+01 -2.415471E-02
  2.420000E+01 -2.873079E-02
  2.430000E+01 -3.694398E-02
  2.440000E+01 -4.838511E-02
  2.450000E+01 -6.243881E-02
  2.460000E+01 -7.831942E-02
  2.470000E+01 -9.512315E-02
  2.480000E+01 -1.118931E-01
  2.490000E+01 -1.276926E-01
  2.500000E+01 -1.416802E-01
  2.510000E+01 -1.531823E-01
  2.520000E+01 -1.617535E-01
  2.530000E+01 -1.672232E-01
  2.540000E+01 -1.697204E-01
  2.550000E+01 -1.696748E-01
  2.560000E+01 -1.677942E-01
  2.570000E+01 -1.650166E-01
  2.580000E+01 -1.624421E-01
  2.590000E+01 -1.612477E-01
  2.600000E+01 -1.625927E-01
  2.610000E+01 -1.675206E-01
  2.620000E+01 -1.768669E-01
  2.630000E+01 -1.911786E-01
  2.640000E+01 -2.106534E-01
  2.650000E+01 -2.351043E-01
  2.660000E+01 -2.639510E-01
  2.670000E+01 -2.962421E-01
  2.680000E+01 -3.307049E-01
  2.690000E+01 -3.658202E-01
  2.700000E+01 -3.999172E-01
  2.710000E+01 -4.312807E-01
  2.720000E+01 -4.582626E-01
  2.730000E+01 -4.793909E-01
  2.740000E+01 -4.934651E-01
  2.750000E+01 -4.996341E-01
  2.760000E+01 -4.974489E-01
  2.770000E+01 -4.868870E-01
  2.780000E+01 -4.683471E-01
  2.790000E+01 -4.426155E-01
  2.800000E+01 -4.108060E-01
  2.810000E+01 -3.742797E-01
  2.820000E+01 -3.345497E-01
  2.830000E+01 -2.931799E-01
  2.840000E+01 -2.516829E-01
  2.850000E+01 -2.114270E-01
  2.860000E+01 -1.735561E-01
  2.870000E+01 -1.389299E-01
  2.880000E+01 -1.080858E-01
  2.890000E+01 -8.122429E-02
  2.900000E+01 -5.821845E-02
  2.910000E+01 -3.864385E-02
  2.920000E+01 -2.182634E-02
  2.930000E+01 -6.902504E-03
  2.940000E+01  7.112033E-03
  2.950000E+01  2.125194E-02
  2.960000E+01  3.653390E-02
  2.970000E+01  5.389486E-02
  2.980000E+01  7.413997E-02
  2.990000E+01  9.790221E-02
  3.000000E+01  1.256144E-01
  3.010000E+01  1.574932E-01
  3.020000E+01  1.935348E-01
  3.030000E+01  2.335189E-01
  3.040000E+01  2.770210E-01
  3.050000E+01  3.234299E-01
  3.060000E+01  3.719679E-01
  3.070000E+01  4.217153E-01
  3.080000E+01  4.716354E-01
  3.090000E+01  5.206016E-01
  3.100000E+01  5.674272E-01
  3.110000E+01  6.108977E-01
  3.120000E+01  6.498062E-01
  3.130000E+01  6.829937E-01
  3.140000E+01  7.093921E-01
  3.150000E+01  7.280710E-01
  3.160000E+01  7.382853E-01
  3.170000E+01  7.395228E-01
  3.180000E+01  7.315462E-01
  3.190000E+01  7.144289E-01
  3.200000E+01  6.885782E-01
  3.210000E+01  6.547441E-01
  3.220000E+01  6.140098E-01
  3.230000E+01  5.677625E-01
  3.240000E+01  5.176439E-01
  3.250000E+01  4.654809E-01
  3.260000E+01  4.132002E-01
  3.270000E+01  3.627303E-01
  3.280000E+01  3.158975E-01
  3.290000E+01  2.743222E-01
  3.300000E+01  2.393224E-01
  3.310000E+01  2.118330E-01
  3.320000E+01  1.923465E-01
  3.330000E+01  1.808808E-01
  3.340000E+01  1.769774E-01
  3.350000E+01  1.797311E-01
  3.360000E+01  1.878514E-01
  3.370000E+01  1.997500E-01
  3.380000E+01  2.136501E-01
  3.390000E+01  2.277090E-01
  3.400000E+01  2.401461E-01
  3.410000E+01  2.493648E-01
  3.420000E+01  2.540613E-01
  3.430000E+01  2.533095E-01
  3.440000E+01  2.466178E-01
  3.450000E+01  2.339505E-01
  3.460000E+01  2.157146E-01
  3.470000E+01  1.927115E-01
  3.480000E+01  1.660579E-01
  3.490000E+01  1.370823E-01
  3.500000E+01  1.072057E-01
  3.510000E+01  7.781632E-02
  3.520000E+01  5.014768E-02
  3.530000E+01  2.517165E-02
  3.540000E+01  3.513994E-03
  3.550000E+01 -1.460009E-02
  3.560000E+01 -2.936603E-02
  3.570000E+01 -4.138388E-02
  3.580000E+01 -5.160751E-02
  3.590000E+01 -6.126335E-02
  3.600000E+01 -7.174507E-02
  3.610000E+01 -8.449311E-02
  3.620000E+01 -1.008688E-01
  3.630000E+01 -1.220330E-01
  3.640000E+01 -1.488401E-01
  3.650000E+01 -1.817544E-01
  3.660000E+01 -2.207972E-01
  3.670000E+01 -2.655274E-01
  3.680000E+01 -3.150582E-01
  3.690000E+01 -3.681078E-01
  3.700000E+01 -4.230801E-01
  3.710000E+01 -4.781694E-01
  3.720000E+01 -5.314806E-01
  3.730000E+01 -5.811558E-01
  3.740000E+01 -6.254976E-01
  3.750000E+01 -6.630798E-01
  3.760000E+01 -6.928382E-01
  3.770000E+01 -7.141349E-01
  3.780000E+01 -7.267912E-01
  3.790000E+01 -7.310890E-01
  3.800000E+01 -7.277407E-01
  3.810000E+01 -7.178308E-01
  3.820000E+01 -7.027345E-01
  3.830000E+01 -6.840198E-01
  3.840000E+01 -6.633419E-01
  3.850000E+01 -6.423350E-01
  3.860000E+01 -6.225131E-01
  3.870000E+01 -6.051823E-01
  3.880000E+01 -5.913727E-01
  3.890000E+01 -5.817931E-01
  3.900000E+01 -5.768081E-01
  3.910000E+01 -5.764410E-01
  3.920000E+01 -5.803963E-01
  3.930000E+01 -5.881023E-01
  3.940000E+01 -5.987663E-01
  3.950000E+01 -6.114380E-01
  3.960000E+01 -6.250771E-01
  3.970000E+01 -6.386174E-01
  3.980000E+01 -6.510248E-01
  3.990000E+01 -6.613455E-01
  4.000000E+01 -6.687411E-01
  4.010000E+01 -6.725113E-01
  4.020000E+01 -6.721032E-01
  4.030000E+01 -6.671097E-01
  4.040000E+01 -6.572585E-01
  4.050000E+01 -6.423959E-01
  4.060000E+01 -6.224676E-01
  4.070000E+01 -5.975003E-01
  4.080000E+01 -5.675863E-01
  4.090000E+01 -5.328736E-01
  4.100000E+01 -4.935627E-01
  4.110000E+01 -4.499084E-01
  4.120000E+01 -4.022288E-01
  4.130000E+01 -3.509164E-01
  4.140000E+01 -2.964503E-01
  4.150000E+01 -2.394070E-01
  4.160000E+01 -1.804651E-01
  4.170000E+01 -1.204022E-01
  4.180000E+01 -6.008137E-02
  4.190000E+01 -4.257198E-04
  4.200000E+01  5.761888E-02
  4.210000E+01  1.131324E-01
  4.220000E+01  1.652779E-01
  4.230000E+01  2.133638E-01
  4.240000E+01  2.569069E-01
  4.250000E+01  2.956909E-01
  4.260000E+01  3.298142E-01
  4.270000E+01  3.597229E-01
  4.280000E+01  3.862218E-01
  4.290000E+01  4.104632E-01
  4.300000E+01  4.339072E-01
  4.310000E+01  4.582569E-01
  4.320000E+01  4.853676E-01
  4.330000E+01  5.171349E-01
  4.340000E+01  5.553677E-01
  4.350000E+01  6.016530E-01
  4.360000E+01  6.572214E-01
  4.370000E+01  7.228240E-01
  4.380000E+01  7.986282E-01
  4.390000E+01  8.841438E-01
  4.400000E+01  9.781848E-01
  4.410000E+01  1.078873E+00
  4.420000E+01  1.183690E+00
  4.430000E+01  1.289565E+00
  4.440000E+01  1.393016E+00
  4.450000E+01  1.490317E+00
  4.460000E+01  1.577694E+00
  4.470000E+01  1.651533E+00
  4.480000E+01  1.708590E+00
  4.490000E+01  1.746187E+00
  4.500000E+01  1.762381E+00
  4.510000E+01  1.756090E+00
  4.520000E+01  1.727174E+00
  4.530000E+01  1.676458E+00
  4.540000E+01  1.605693E+00
  4.550000E+01  1.517459E+00
  4.560000E+01  1.415021E+00
  4.570000E+01  1.302129E+00
  4.580000E+01  1.182802E+00
  4.590000E+01  1.061081E+00
  4.600000E+01  9.407913E-01
  4.610000E+01  8.253249E-01
  4.620000E+01  7.174476E-01
  4.630000E+01  6.191596E-01
  4.640000E+01  5.316108E-01
  4.650000E+01  4.550789E-01
  4.660000E+01  3.890118E-01
  4.670000E+01  3.321299E-01
  4.680000E+01  2.825803E-01
  4.690000E+01  2.381301E-01
  4.700000E+01  1.963829E-01
  4.710000E+01  1.550029E-01
  4.720000E+01  1.119257E-01
  4.730000E+01  6.554161E-02
  4.740000E+01  1.483592E-02
  4.750000E+01 -4.052591E-02
  4.760000E+01 -1.001732E-01
  4.770000E+01 -1.630676E-01
  4.780000E+01 -2.275999E-01
  4.790000E+01 -2.917369E-01
  4.800000E+01 -3.532068E-01
  4.810000E+01 -4.097067E-01
  4.820000E+01 -4.591148E-01
  4.830000E+01 -4.996898E-01
  4.840000E+01 -5.302404E-01
  4.850000E+01 -5.502502E-01
  4.860000E+01 -5.599490E-01
  4.870000E+01 -5.603224E-01
  4.880000E+01 -5.530605E-01
  4.890000E+01 -5.404487E-01
  4.900000E+01 -5.252101E-01
  4.910000E+01 -5.103122E-01
  4.920000E+01 -4.987530E-01
  4.930000E+01 -4.933439E-01
  4.940000E+01 -4.965072E-01
  4.950000E+01 -5.101023E-01
  4.960000E+01 -5.352955E-01
  4.970000E+01 -5.724813E-01
  4.980000E+01 -6.212606E-01
  4.990000E+01 -6.804764E-01
  5.000000E+01 -7.483017E-01
  5.010000E+01 -8.223719E-01
  5.020000E+01 -8.999578E-01
  5.030000E+01 -9.781429E-01
  5.040000E+01 -1.053998E+00
  5.050000E+01 -1.124766E+00
  5.060000E+01 -1.188009E+00
  5.070000E+01 -1.241728E+00
  5.080000E+01 -1.284444E+00
  5.090000E+01 -1.315227E+00
  5.100000E+01 -1.333693E+00
  5.110000E+01 -1.339962E+00
  5.120000E+01 -1.334584E+00
  5.130000E+01 -1.318449E+00
  5.140000E+01 -1.292686E+00
  5.150000E+01 -1.258565E+00
  5.160000E+01 -1.217412E+00
  5.170000E+01 -1.170536E+00
  5.180000E+01 -1.119184E+00
  5.190000E+01 -1.064517E+00
  5.200000E+01 -1.007610E+00
  5.210000E+01 -9.494683E-01
  5.220000E+01 -8.910525E-01
  5.230000E+01 -8.333101E-01
  5.240000E+01 -7.772005E-01
  5.250000E+01 -7.237073E-01
  5.260000E+01 -6.738325E-01
  5.270000E+01 -6.285695E-01
  5.280000E+01 -5.888539E-01
  5.290000E+01 -5.554947E-01
  5.300000E+01 -5.290923E-01
  5.310000E+01 -5.099502E-01
  5.320000E+01 -4.979911E-01
  5.330000E+01 -4.926870E-01
  5.340000E+01 -4.930144E-01
  5.350000E+01 -4.974414E-01
  5.360000E+01 -5.039555E-01
  5.370000E+01 -5.101323E-01
  5.380000E+01 -5.132465E-01
  5.390000E+01 -5.104182E-01
  5.400000E+01 -4.987889E-01
  5.410000E+01 -4.757124E-01
  5.420000E+01 -4.389500E-01
  5.430000E+01 -3.868518E-01
  5.440000E+01 -3.185121E-01
  5.450000E+01 -2.338838E-01
  5.460000E+01 -1.338410E-01
  5.470000E+01 -2.018380E-02
  5.480000E+01  1.044191E-01
  5.490000E+01  2.365471E-01
  5.500000E+01  3.721981E-01
  5.510000E+01  5.070011E-01
  5.520000E+01  6.364576E-01
  5.530000E+01  7.561958E-01
  5.540000E+01  8.622192E-01
  5.550000E+01  9.511333E-01
  5.560000E+01  1.020335E+00
  5.570000E+01  1.068153E+00
  5.580000E+01  1.093927E+00
  5.590000E+01  1.098030E+00
  5.600000E+01  1.081818E+00
  5.610000E+01  1.047534E+00
  5.620000E+01  9.981576E-01
  5.630000E+01  9.372152E-01
  5.640000E+01  8.685744E-01
  5.650000E+01  7.962273E-01
  5.660000E+01  7.240821E-01
  5.670000E+01  6.557759E-01
  5.680000E+01  5.945189E-01
  5.690000E+01  5.429775E-01
  5.700000E+01  5.032007E-01
  5.710000E+01  4.765905E-01
  5.720000E+01  4.639115E-01
  5.730000E+01  4.653357E-01
  5.740000E+01  4.805131E-01
  5.750000E+01  5.086589E-01
  5.760000E+01  5.486480E-01
  5.770000E+01  5.991070E-01
  5.780000E+01  6.584980E-01
  5.790000E+01  7.251855E-01
  5.800000E+01  7.974876E-01
  5.810000E+01  8.737064E-01
  5.820000E+01  9.521437E-01
  5.830000E+01  1.031102E+00
  5.840000E+01  1.108880E+00
  5.850000E+01  1.183763E+00
  5.860000E+01  1.254019E+00
  5.870000E+01  1.317903E+00
  5.880000E+01  1.373676E+00
  5.890000E+01  1.419629E+00
  5.900000E+01  1.454134E+00
  5.910000E+01  1.475696E+00
  5.920000E+01  1.483016E+00
  5.930000E+01  1.475059E+00
  5.940000E+01  1.451112E+00
  5.950000E+01  1.410840E+00
  5.960000E+01  1.354322E+00
  5.970000E+01  1.282066E+00
  5.980000E+01  1.195007E+00
  5.990000E+01  1.094475E+00
  6.000000E+01  9.821496E-01
  6.010000E+01  8.599846E-01
  6.020000E+01  7.301284E-01
  6.030000E+01  5.948306E-01
  6.040000E+01  4.563496E-01
  6.050000E+01  3.168647E-01
  6.060000E+01  1.783998E-01
  6.070000E+01  4.276394E-02
  6.080000E+01 -8.848880E-02
  6.090000E+01 -2.140778E-01
  6.100000E+01 -3.329940E-01
  6.110000E+01 -4.444788E-01
  6.120000E+01 -5.479893E-01
  6.130000E+01 -6.431537E-01
  6.140000E+01 -7.297225E-01
  6.150000E+01 -8.075224E-01
  6.160000E+01 -8.764169E-01
  6.170000E+01 -9.362776E-01
  6.180000E+01 -9.869708E-01
  6.190000E+01 -1.028358E+00
  6.200000E+01 -1.060310E+00
  6.210000E+01 -1.082735E+00
  6.220000E+01 -1.095615E+00
  6.230000E+01 -1.099042E+00
  6.240000E+01 -1.093259E+00
  6.250000E+01 -1.078692E+00
  6.260000E+01 -1.055969E+00
  6.270000E+01 -1.025934E+00
  6.280000E+01 -9.896329E-01
  6.290000E+01 -9.482955E-01
  6.300000E+01 -9.032961E-01
  6.310000E+01 -8.561035E-01
  6.320000E+01 -8.082234E-01
  6.330000E+01 -7.611355E-01
  6.340000E+01 -7.162323E-01
  6.350000E+01 -6.747629E-01
  6.360000E+01 -6.377862E-01
  6.370000E+01 -6.061356E-01
  6.380000E+01 -5.803989E-01
  6.390000E+01 -5.609108E-01
  6.400000E+01 -5.477603E-01
  6.410000E+01 -5.408079E-01
  6.420000E+01 -5.397114E-01
  6.430000E+01 -5.439566E-01
  6.440000E+01 -5.528886E-01
  6.450000E+01 -5.657410E-01
  6.460000E+01 -5.816610E-01
  6.470000E+01 -5.997275E-01
  6.480000E+01 -6.189638E-01
  6.490000E+01 -6.383440E-01
  6.500000E+01 -6.567964E-01
  6.510000E+01 -6.732056E-01
  6.520000E+01 -6.864178E-01
  6.530000E+01 -6.952514E-01
  6.540000E+01 -6.985155E-01
  6.550000E+01 -6.950401E-01
  6.560000E+01 -6.837171E-01
  6.570000E+01 -6.635511E-01
  6.580000E+01 -6.337203E-01
  6.590000E+01 -5.936405E-01
  6.600000E+01 -5.430305E-01
  6.610000E+01 -4.819707E-01
  6.620000E+01 -4.109509E-01
  6.630000E+01 -3.308997E-01
  6.640000E+01 -2.431921E-01
  6.650000E+01 -1.496304E-01
